info: PREM model for 200. s
info: Dziewonski and Anderson, 1981, PEPI, 25, 279-356
info:  radius        vp         vs      density       gravity    poiss     young         lambda        mu            beta          bulk
info:  [km]          [m/s]      [m/s]   [kg/m^3]      [m/s^2]    [-]       [Pa]          [Pa]          [Pa]          [Pa]          [Pa]
          0.0000 11218.1673  3594.6822 13088.5000     0.0000     0.4428    0.4880E+12    0.1309E+13    0.1691E+12    0.1647E+13    0.1422E+13
          1.0000 11218.1671  3594.6820 13088.4998     0.0037     0.4428    0.4880E+12    0.1309E+13    0.1691E+12    0.1647E+13    0.1422E+13
          2.0000 11218.1666  3594.6817 13088.4991     0.0073     0.4428    0.4880E+12    0.1309E+13    0.1691E+12    0.1647E+13    0.1422E+13
          3.0000 11218.1659  3594.6812 13088.4980     0.0110     0.4428    0.4880E+12    0.1309E+13    0.1691E+12    0.1647E+13    0.1422E+13
          4.0000 11218.1648  3594.6804 13088.4965     0.0146     0.4428    0.4880E+12    0.1309E+13    0.1691E+12    0.1647E+13    0.1422E+13
          5.0000 11218.1634  3594.6795 13088.4946     0.0183     0.4428    0.4880E+12    0.1309E+13    0.1691E+12    0.1647E+13    0.1422E+13
          6.0000 11218.1617  3594.6783 13088.4922     0.0219     0.4428    0.4880E+12    0.1309E+13    0.1691E+12    0.1647E+13    0.1422E+13
          7.0000 11218.1596  3594.6769 13088.4893     0.0256     0.4428    0.4880E+12    0.1309E+13    0.1691E+12    0.1647E+13    0.1422E+13
          8.0000 11218.1573  3594.6753 13088.4861     0.0293     0.4428    0.4880E+12    0.1309E+13    0.1691E+12    0.1647E+13    0.1422E+13
          9.0000 11218.1547  3594.6735 13088.4824     0.0329     0.4428    0.4880E+12    0.1309E+13    0.1691E+12    0.1647E+13    0.1422E+13
         10.0000 11218.1517  3594.6714 13088.4782     0.0366     0.4428    0.4880E+12    0.1309E+13    0.1691E+12    0.1647E+13    0.1422E+13
         11.0000 11218.1485  3594.6692 13088.4737     0.0402     0.4428    0.4880E+12    0.1309E+13    0.1691E+12    0.1647E+13    0.1422E+13
         12.0000 11218.1449  3594.6667 13088.4686     0.0439     0.4428    0.4880E+12    0.1309E+13    0.1691E+12    0.1647E+13    0.1422E+13
         13.0000 11218.1410  3594.6640 13088.4632     0.0475     0.4428    0.4880E+12    0.1309E+13    0.1691E+12    0.1647E+13    0.1422E+13
         14.0000 11218.1368  3594.6611 13088.4573     0.0512     0.4428    0.4880E+12    0.1309E+13    0.1691E+12    0.1647E+13    0.1422E+13
         15.0000 11218.1323  3594.6580 13088.4510     0.0549     0.4428    0.4880E+12    0.1309E+13    0.1691E+12    0.1647E+13    0.1422E+13
         16.0000 11218.1275  3594.6547 13088.4443     0.0585     0.4428    0.4880E+12    0.1309E+13    0.1691E+12    0.1647E+13    0.1422E+13
         17.0000 11218.1224  3594.6511 13088.4371     0.0622     0.4428    0.4880E+12    0.1309E+13    0.1691E+12    0.1647E+13    0.1422E+13
         18.0000 11218.1170  3594.6474 13088.4295     0.0658     0.4428    0.4880E+12    0.1309E+13    0.1691E+12    0.1647E+13    0.1422E+13
         19.0000 11218.1112  3594.6434 13088.4214     0.0695     0.4428    0.4880E+12    0.1309E+13    0.1691E+12    0.1647E+13    0.1422E+13
         20.0000 11218.1052  3594.6392 13088.4129     0.0731     0.4428    0.4880E+12    0.1309E+13    0.1691E+12    0.1647E+13    0.1422E+13
         21.0000 11218.0988  3594.6348 13088.4040     0.0768     0.4428    0.4880E+12    0.1309E+13    0.1691E+12    0.1647E+13    0.1422E+13
         22.0000 11218.0921  3594.6302 13088.3946     0.0804     0.4428    0.4880E+12    0.1309E+13    0.1691E+12    0.1647E+13    0.1422E+13
         23.0000 11218.0851  3594.6253 13088.3848     0.0841     0.4428    0.4880E+12    0.1309E+13    0.1691E+12    0.1647E+13    0.1422E+13
         24.0000 11218.0778  3594.6203 13088.3746     0.0878     0.4428    0.4880E+12    0.1309E+13    0.1691E+12    0.1647E+13    0.1422E+13
         25.0000 11218.0702  3594.6150 13088.3639     0.0914     0.4428    0.4880E+12    0.1309E+13    0.1691E+12    0.1647E+13    0.1422E+13
         26.0000 11218.0623  3594.6096 13088.3528     0.0951     0.4428    0.4880E+12    0.1309E+13    0.1691E+12    0.1647E+13    0.1422E+13
         27.0000 11218.0541  3594.6039 13088.3413     0.0987     0.4428    0.4880E+12    0.1309E+13    0.1691E+12    0.1647E+13    0.1422E+13
         28.0000 11218.0456  3594.5980 13088.3293     0.1024     0.4428    0.4880E+12    0.1309E+13    0.1691E+12    0.1647E+13    0.1422E+13
         29.0000 11218.0367  3594.5918 13088.3169     0.1060     0.4428    0.4880E+12    0.1309E+13    0.1691E+12    0.1647E+13    0.1422E+13
         30.0000 11218.0276  3594.5855 13088.3040     0.1097     0.4428    0.4880E+12    0.1309E+13    0.1691E+12    0.1647E+13    0.1422E+13
         31.0000 11218.0181  3594.5790 13088.2907     0.1134     0.4428    0.4880E+12    0.1309E+13    0.1691E+12    0.1647E+13    0.1422E+13
         32.0000 11218.0083  3594.5722 13088.2770     0.1170     0.4428    0.4880E+12    0.1309E+13    0.1691E+12    0.1647E+13    0.1422E+13
         33.0000 11217.9982  3594.5652 13088.2629     0.1207     0.4428    0.4880E+12    0.1309E+13    0.1691E+12    0.1647E+13    0.1422E+13
         34.0000 11217.9878  3594.5580 13088.2483     0.1243     0.4428    0.4880E+12    0.1309E+13    0.1691E+12    0.1647E+13    0.1422E+13
         35.0000 11217.9771  3594.5506 13088.2333     0.1280     0.4428    0.4880E+12    0.1309E+13    0.1691E+12    0.1647E+13    0.1422E+13
         36.0000 11217.9661  3594.5430 13088.2178     0.1316     0.4428    0.4880E+12    0.1309E+13    0.1691E+12    0.1647E+13    0.1422E+13
         37.0000 11217.9547  3594.5351 13088.2019     0.1353     0.4428    0.4880E+12    0.1309E+13    0.1691E+12    0.1647E+13    0.1422E+13
         38.0000 11217.9431  3594.5271 13088.1856     0.1390     0.4428    0.4880E+12    0.1309E+13    0.1691E+12    0.1647E+13    0.1422E+13
         39.0000 11217.9312  3594.5188 13088.1688     0.1426     0.4428    0.4880E+12    0.1309E+13    0.1691E+12    0.1647E+13    0.1422E+13
         40.0000 11217.9189  3594.5103 13088.1516     0.1463     0.4428    0.4880E+12    0.1309E+13    0.1691E+12    0.1647E+13    0.1422E+13
         41.0000 11217.9063  3594.5016 13088.1340     0.1499     0.4428    0.4880E+12    0.1309E+13    0.1691E+12    0.1647E+13    0.1422E+13
         42.0000 11217.8934  3594.4927 13088.1159     0.1536     0.4428    0.4880E+12    0.1309E+13    0.1691E+12    0.1647E+13    0.1422E+13
         43.0000 11217.8802  3594.4836 13088.0974     0.1572     0.4428    0.4880E+12    0.1309E+13    0.1691E+12    0.1647E+13    0.1422E+13
         44.0000 11217.8667  3594.4743 13088.0785     0.1609     0.4428    0.4880E+12    0.1309E+13    0.1691E+12    0.1647E+13    0.1422E+13
         45.0000 11217.8529  3594.4647 13088.0591     0.1646     0.4428    0.4880E+12    0.1309E+13    0.1691E+12    0.1647E+13    0.1422E+13
         46.0000 11217.8388  3594.4549 13088.0393     0.1682     0.4428    0.4879E+12    0.1309E+13    0.1691E+12    0.1647E+13    0.1422E+13
         47.0000 11217.8244  3594.4449 13088.0190     0.1719     0.4428    0.4879E+12    0.1309E+13    0.1691E+12    0.1647E+13    0.1422E+13
         48.0000 11217.8096  3594.4347 13087.9983     0.1755     0.4428    0.4879E+12    0.1309E+13    0.1691E+12    0.1647E+13    0.1422E+13
         49.0000 11217.7946  3594.4243 13087.9772     0.1792     0.4428    0.4879E+12    0.1309E+13    0.1691E+12    0.1647E+13    0.1422E+13
         50.0000 11217.7792  3594.4137 13087.9556     0.1828     0.4428    0.4879E+12    0.1309E+13    0.1691E+12    0.1647E+13    0.1422E+13
         51.0000 11217.7635  3594.4028 13087.9337     0.1865     0.4428    0.4879E+12    0.1309E+13    0.1691E+12    0.1647E+13    0.1422E+13
         52.0000 11217.7475  3594.3918 13087.9112     0.1901     0.4428    0.4879E+12    0.1309E+13    0.1691E+12    0.1647E+13    0.1421E+13
         53.0000 11217.7312  3594.3805 13087.8884     0.1938     0.4428    0.4879E+12    0.1309E+13    0.1691E+12    0.1647E+13    0.1421E+13
         54.0000 11217.7146  3594.3690 13087.8651     0.1975     0.4428    0.4879E+12    0.1309E+13    0.1691E+12    0.1647E+13    0.1421E+13
         55.0000 11217.6977  3594.3573 13087.8413     0.2011     0.4428    0.4879E+12    0.1309E+13    0.1691E+12    0.1647E+13    0.1421E+13
         56.0000 11217.6805  3594.3454 13087.8172     0.2048     0.4428    0.4879E+12    0.1309E+13    0.1691E+12    0.1647E+13    0.1421E+13
         57.0000 11217.6629  3594.3333 13087.7926     0.2084     0.4428    0.4879E+12    0.1309E+13    0.1691E+12    0.1647E+13    0.1421E+13
         58.0000 11217.6451  3594.3209 13087.7675     0.2121     0.4428    0.4879E+12    0.1309E+13    0.1691E+12    0.1647E+13    0.1421E+13
         59.0000 11217.6269  3594.3083 13087.7420     0.2157     0.4428    0.4879E+12    0.1309E+13    0.1691E+12    0.1647E+13    0.1421E+13
         60.0000 11217.6084  3594.2956 13087.7161     0.2194     0.4428    0.4879E+12    0.1309E+13    0.1691E+12    0.1647E+13    0.1421E+13
         61.0000 11217.5897  3594.2826 13087.6898     0.2231     0.4428    0.4879E+12    0.1309E+13    0.1691E+12    0.1647E+13    0.1421E+13
         62.0000 11217.5706  3594.2694 13087.6630     0.2267     0.4428    0.4879E+12    0.1309E+13    0.1691E+12    0.1647E+13    0.1421E+13
         63.0000 11217.5512  3594.2559 13087.6358     0.2304     0.4428    0.4879E+12    0.1309E+13    0.1691E+12    0.1647E+13    0.1421E+13
         64.0000 11217.5314  3594.2423 13087.6081     0.2340     0.4428    0.4879E+12    0.1309E+13    0.1691E+12    0.1647E+13    0.1421E+13
         65.0000 11217.5114  3594.2284 13087.5800     0.2377     0.4428    0.4879E+12    0.1309E+13    0.1691E+12    0.1647E+13    0.1421E+13
         66.0000 11217.4911  3594.2144 13087.5515     0.2413     0.4428    0.4879E+12    0.1309E+13    0.1691E+12    0.1647E+13    0.1421E+13
         67.0000 11217.4704  3594.2001 13087.5226     0.2450     0.4428    0.4879E+12    0.1309E+13    0.1691E+12    0.1647E+13    0.1421E+13
         68.0000 11217.4495  3594.1856 13087.4932     0.2487     0.4428    0.4879E+12    0.1309E+13    0.1691E+12    0.1647E+13    0.1421E+13
         69.0000 11217.4282  3594.1709 13087.4633     0.2523     0.4428    0.4879E+12    0.1309E+13    0.1691E+12    0.1647E+13    0.1421E+13
         70.0000 11217.4066  3594.1560 13087.4331     0.2560     0.4428    0.4878E+12    0.1309E+13    0.1691E+12    0.1647E+13    0.1421E+13
         71.0000 11217.3848  3594.1408 13087.4024     0.2596     0.4428    0.4878E+12    0.1309E+13    0.1691E+12    0.1647E+13    0.1421E+13
         72.0000 11217.3626  3594.1255 13087.3712     0.2633     0.4428    0.4878E+12    0.1309E+13    0.1691E+12    0.1647E+13    0.1421E+13
         73.0000 11217.3400  3594.1099 13087.3396     0.2669     0.4428    0.4878E+12    0.1309E+13    0.1691E+12    0.1647E+13    0.1421E+13
         74.0000 11217.3172  3594.0941 13087.3076     0.2706     0.4428    0.4878E+12    0.1309E+13    0.1691E+12    0.1647E+13    0.1421E+13
         75.0000 11217.2941  3594.0781 13087.2752     0.2742     0.4428    0.4878E+12    0.1309E+13    0.1691E+12    0.1647E+13    0.1421E+13
         76.0000 11217.2707  3594.0619 13087.2423     0.2779     0.4428    0.4878E+12    0.1309E+13    0.1691E+12    0.1647E+13    0.1421E+13
         77.0000 11217.2469  3594.0455 13087.2090     0.2816     0.4428    0.4878E+12    0.1309E+13    0.1690E+12    0.1647E+13    0.1421E+13
         78.0000 11217.2229  3594.0288 13087.1753     0.2852     0.4428    0.4878E+12    0.1309E+13    0.1690E+12    0.1647E+13    0.1421E+13
         79.0000 11217.1985  3594.0119 13087.1411     0.2889     0.4428    0.4878E+12    0.1309E+13    0.1690E+12    0.1647E+13    0.1421E+13
         80.0000 11217.1738  3593.9949 13087.1064     0.2925     0.4428    0.4878E+12    0.1309E+13    0.1690E+12    0.1647E+13    0.1421E+13
         81.0000 11217.1488  3593.9776 13087.0714     0.2962     0.4428    0.4878E+12    0.1309E+13    0.1690E+12    0.1647E+13    0.1421E+13
         82.0000 11217.1235  3593.9601 13087.0359     0.2998     0.4428    0.4878E+12    0.1309E+13    0.1690E+12    0.1647E+13    0.1421E+13
         83.0000 11217.0979  3593.9424 13087.0000     0.3035     0.4428    0.4878E+12    0.1309E+13    0.1690E+12    0.1647E+13    0.1421E+13
         84.0000 11217.0720  3593.9244 13086.9636     0.3072     0.4428    0.4878E+12    0.1309E+13    0.1690E+12    0.1647E+13    0.1421E+13
         85.0000 11217.0457  3593.9063 13086.9268     0.3108     0.4428    0.4878E+12    0.1309E+13    0.1690E+12    0.1647E+13    0.1421E+13
         86.0000 11217.0192  3593.8879 13086.8896     0.3145     0.4428    0.4878E+12    0.1309E+13    0.1690E+12    0.1647E+13    0.1421E+13
         87.0000 11216.9923  3593.8693 13086.8519     0.3181     0.4428    0.4877E+12    0.1309E+13    0.1690E+12    0.1647E+13    0.1421E+13
         88.0000 11216.9652  3593.8505 13086.8138     0.3218     0.4428    0.4877E+12    0.1309E+13    0.1690E+12    0.1647E+13    0.1421E+13
         89.0000 11216.9377  3593.8315 13086.7753     0.3254     0.4428    0.4877E+12    0.1309E+13    0.1690E+12    0.1647E+13    0.1421E+13
         90.0000 11216.9099  3593.8123 13086.7363     0.3291     0.4428    0.4877E+12    0.1309E+13    0.1690E+12    0.1647E+13    0.1421E+13
         91.0000 11216.8818  3593.7929 13086.6969     0.3327     0.4428    0.4877E+12    0.1309E+13    0.1690E+12    0.1647E+13    0.1421E+13
         92.0000 11216.8534  3593.7732 13086.6570     0.3364     0.4428    0.4877E+12    0.1309E+13    0.1690E+12    0.1647E+13    0.1421E+13
         93.0000 11216.8247  3593.7534 13086.6167     0.3401     0.4428    0.4877E+12    0.1308E+13    0.1690E+12    0.1647E+13    0.1421E+13
         94.0000 11216.7957  3593.7333 13086.5760     0.3437     0.4428    0.4877E+12    0.1308E+13    0.1690E+12    0.1647E+13    0.1421E+13
         95.0000 11216.7663  3593.7130 13086.5349     0.3474     0.4428    0.4877E+12    0.1308E+13    0.1690E+12    0.1646E+13    0.1421E+13
         96.0000 11216.7367  3593.6925 13086.4933     0.3510     0.4428    0.4877E+12    0.1308E+13    0.1690E+12    0.1646E+13    0.1421E+13
         97.0000 11216.7067  3593.6717 13086.4513     0.3547     0.4428    0.4877E+12    0.1308E+13    0.1690E+12    0.1646E+13    0.1421E+13
         98.0000 11216.6765  3593.6508 13086.4088     0.3583     0.4428    0.4877E+12    0.1308E+13    0.1690E+12    0.1646E+13    0.1421E+13
         99.0000 11216.6459  3593.6296 13086.3659     0.3620     0.4428    0.4877E+12    0.1308E+13    0.1690E+12    0.1646E+13    0.1421E+13
        100.0000 11216.6150  3593.6083 13086.3226     0.3656     0.4428    0.4877E+12    0.1308E+13    0.1690E+12    0.1646E+13    0.1421E+13
        101.0000 11216.5838  3593.5867 13086.2788     0.3693     0.4428    0.4877E+12    0.1308E+13    0.1690E+12    0.1646E+13    0.1421E+13
        102.0000 11216.5523  3593.5649 13086.2346     0.3730     0.4428    0.4876E+12    0.1308E+13    0.1690E+12    0.1646E+13    0.1421E+13
        103.0000 11216.5204  3593.5429 13086.1900     0.3766     0.4428    0.4876E+12    0.1308E+13    0.1690E+12    0.1646E+13    0.1421E+13
        104.0000 11216.4883  3593.5206 13086.1449     0.3803     0.4428    0.4876E+12    0.1308E+13    0.1690E+12    0.1646E+13    0.1421E+13
        105.0000 11216.4559  3593.4982 13086.0994     0.3839     0.4428    0.4876E+12    0.1308E+13    0.1690E+12    0.1646E+13    0.1421E+13
        106.0000 11216.4231  3593.4755 13086.0534     0.3876     0.4428    0.4876E+12    0.1308E+13    0.1690E+12    0.1646E+13    0.1421E+13
        107.0000 11216.3901  3593.4527 13086.0071     0.3912     0.4428    0.4876E+12    0.1308E+13    0.1690E+12    0.1646E+13    0.1421E+13
        108.0000 11216.3567  3593.4296 13085.9602     0.3949     0.4428    0.4876E+12    0.1308E+13    0.1690E+12    0.1646E+13    0.1421E+13
        109.0000 11216.3230  3593.4063 13085.9130     0.3985     0.4428    0.4876E+12    0.1308E+13    0.1690E+12    0.1646E+13    0.1421E+13
        110.0000 11216.2890  3593.3828 13085.8653     0.4022     0.4428    0.4876E+12    0.1308E+13    0.1690E+12    0.1646E+13    0.1421E+13
        111.0000 11216.2547  3593.3590 13085.8172     0.4059     0.4428    0.4876E+12    0.1308E+13    0.1690E+12    0.1646E+13    0.1421E+13
        112.0000 11216.2201  3593.3351 13085.7686     0.4095     0.4428    0.4876E+12    0.1308E+13    0.1690E+12    0.1646E+13    0.1421E+13
        113.0000 11216.1852  3593.3109 13085.7196     0.4132     0.4428    0.4876E+12    0.1308E+13    0.1690E+12    0.1646E+13    0.1421E+13
        114.0000 11216.1499  3593.2865 13085.6702     0.4168     0.4428    0.4876E+12    0.1308E+13    0.1690E+12    0.1646E+13    0.1421E+13
        115.0000 11216.1144  3593.2619 13085.6204     0.4205     0.4428    0.4875E+12    0.1308E+13    0.1690E+12    0.1646E+13    0.1421E+13
        116.0000 11216.0785  3593.2371 13085.5701     0.4241     0.4428    0.4875E+12    0.1308E+13    0.1690E+12    0.1646E+13    0.1421E+13
        117.0000 11216.0423  3593.2121 13085.5193     0.4278     0.4428    0.4875E+12    0.1308E+13    0.1689E+12    0.1646E+13    0.1421E+13
        118.0000 11216.0059  3593.1869 13085.4681     0.4314     0.4428    0.4875E+12    0.1308E+13    0.1689E+12    0.1646E+13    0.1421E+13
        119.0000 11215.9691  3593.1614 13085.4165     0.4351     0.4428    0.4875E+12    0.1308E+13    0.1689E+12    0.1646E+13    0.1421E+13
        120.0000 11215.9320  3593.1358 13085.3645     0.4388     0.4428    0.4875E+12    0.1308E+13    0.1689E+12    0.1646E+13    0.1421E+13
        121.0000 11215.8946  3593.1099 13085.3120     0.4424     0.4428    0.4875E+12    0.1308E+13    0.1689E+12    0.1646E+13    0.1421E+13
        122.0000 11215.8568  3593.0838 13085.2591     0.4461     0.4428    0.4875E+12    0.1308E+13    0.1689E+12    0.1646E+13    0.1421E+13
        123.0000 11215.8188  3593.0575 13085.2058     0.4497     0.4428    0.4875E+12    0.1308E+13    0.1689E+12    0.1646E+13    0.1421E+13
        124.0000 11215.7805  3593.0310 13085.1520     0.4534     0.4428    0.4875E+12    0.1308E+13    0.1689E+12    0.1646E+13    0.1421E+13
        125.0000 11215.7418  3593.0042 13085.0978     0.4570     0.4428    0.4875E+12    0.1308E+13    0.1689E+12    0.1646E+13    0.1421E+13
        126.0000 11215.7029  3592.9773 13085.0431     0.4607     0.4428    0.4874E+12    0.1308E+13    0.1689E+12    0.1646E+13    0.1421E+13
        127.0000 11215.6636  3592.9501 13084.9880     0.4643     0.4428    0.4874E+12    0.1308E+13    0.1689E+12    0.1646E+13    0.1421E+13
        128.0000 11215.6240  3592.9227 13084.9325     0.4680     0.4428    0.4874E+12    0.1308E+13    0.1689E+12    0.1646E+13    0.1421E+13
        129.0000 11215.5841  3592.8951 13084.8765     0.4717     0.4428    0.4874E+12    0.1308E+13    0.1689E+12    0.1646E+13    0.1421E+13
        130.0000 11215.5439  3592.8673 13084.8201     0.4753     0.4428    0.4874E+12    0.1308E+13    0.1689E+12    0.1646E+13    0.1421E+13
        131.0000 11215.5034  3592.8393 13084.7633     0.4790     0.4428    0.4874E+12    0.1308E+13    0.1689E+12    0.1646E+13    0.1421E+13
        132.0000 11215.4626  3592.8110 13084.7061     0.4826     0.4428    0.4874E+12    0.1308E+13    0.1689E+12    0.1646E+13    0.1421E+13
        133.0000 11215.4214  3592.7826 13084.6483     0.4863     0.4428    0.4874E+12    0.1308E+13    0.1689E+12    0.1646E+13    0.1421E+13
        134.0000 11215.3800  3592.7539 13084.5902     0.4899     0.4428    0.4874E+12    0.1308E+13    0.1689E+12    0.1646E+13    0.1421E+13
        135.0000 11215.3382  3592.7250 13084.5316     0.4936     0.4428    0.4874E+12    0.1308E+13    0.1689E+12    0.1646E+13    0.1421E+13
        136.0000 11215.2962  3592.6959 13084.4726     0.4972     0.4428    0.4873E+12    0.1308E+13    0.1689E+12    0.1646E+13    0.1421E+13
        137.0000 11215.2538  3592.6666 13084.4132     0.5009     0.4428    0.4873E+12    0.1308E+13    0.1689E+12    0.1646E+13    0.1421E+13
